#	< Density >
1	0.151000
2	0.151000
3	0.151000
4	0.151000
5	0.151000
6	0.151000
7	0.151000
8	0.151125
9	0.151222
10	0.151300
11	0.151364
12	0.151417
13	0.151462
14	0.151500
15	0.151533
16	0.151625
17	0.151706
18	0.151778
19	0.151842
20	0.151900
21	0.151952
22	0.152000
23	0.152043
24	0.152083
25	0.152120
26	0.152154
27	0.152185
28	0.152214
29	0.152241
30	0.152300
31	0.152355
32	0.152406
33	0.152455
34	0.152500
35	0.152543
36	0.152583
37	0.152622
38	0.152658
39	0.152692
40	0.152725
41	0.152756
42	0.152786
43	0.152814
44	0.152841
45	0.152867
46	0.152891
47	0.152915
48	0.152938
49	0.152959
50	0.152980
51	0.153000
52	0.153019
53	0.153038
54	0.153056
55	0.153073
56	0.153089
57	0.153105
58	0.153121
59	0.153136
60	0.153150
61	0.153164
62	0.153177
63	0.153190
64	0.153203
65	0.153215
66	0.153227
67	0.153239
68	0.153265
69	0.153290
70	0.153314
71	0.153338
72	0.153361
73	0.153384
74	0.153405
75	0.153427
76	0.153447
77	0.153468
78	0.153487
79	0.153506
80	0.153525
81	0.153543
82	0.153561
83	0.153578
84	0.153607
85	0.153635
86	0.153663
87	0.153690
88	0.153716
89	0.153753
90	0.153789
91	0.153824
92	0.153859
93	0.153892
94	0.153926
95	0.153958
96	0.153990
97	0.154021
98	0.154051
99	0.154081
100	0.154110
101	0.154139
102	0.154167
103	0.154194
104	0.154231
105	0.154267
106	0.154302
107	0.154336
108	0.154370
109	0.154404
110	0.154436
111	0.154468
112	0.154500
113	0.154531
114	0.154561
115	0.154591
116	0.154621
117	0.154650
118	0.154678
119	0.154706
120	0.154725
121	0.154744
122	0.154762
123	0.154780
124	0.154806
125	0.154832
126	0.154857
127	0.154882
128	0.154906
129	0.154930
130	0.154954
131	0.154977
132	0.155000
133	0.155023
134	0.155045
135	0.155067
136	0.155088
137	0.155109
138	0.155130
139	0.155151
140	0.155171
141	0.155191
142	0.155211
143	0.155231
144	0.155257
145	0.155283
146	0.155308
147	0.155333
148	0.155358
149	0.155383
150	0.155407
151	0.155430
152	0.155461
153	0.155490
154	0.155519
155	0.155548
156	0.155577
157	0.155605
158	0.155633
159	0.155660
160	0.155688
161	0.155714
162	0.155741
163	0.155767
164	0.155793
165	0.155818
166	0.155843
167	0.155868
168	0.155893
169	0.155917
170	0.155941
171	0.155965
172	0.155988
173	0.156012
174	0.156034
175	0.156057
176	0.156080
177	0.156102
178	0.156129
179	0.156156
180	0.156183
181	0.156210
182	0.156236
183	0.156262
184	0.156288
185	0.156314
186	0.156339
187	0.156364
188	0.156388
189	0.156413
190	0.156442
191	0.156471
192	0.156500
193	0.156528
194	0.156557
195	0.156585
196	0.156612
197	0.156640
198	0.156662
199	0.156683
200	0.156705
